x-axis,1
second,Volt
-10.00000E-03,+2.00924614E+00
-9.99000E-03,+1.96402001E+00
-9.98000E-03,+1.96100494E+00
-9.97000E-03,+2.00924614E+00
-9.96000E-03,+2.01226122E+00
-9.95000E-03,+2.05748735E+00
-9.94000E-03,+2.05748735E+00
-9.93000E-03,+2.05748735E+00
-9.92000E-03,+2.01226122E+00
-9.91000E-03,+2.05748735E+00
-9.90000E-03,+2.01226122E+00
-9.89000E-03,+2.05748735E+00
-9.88000E-03,+2.01226122E+00
-9.87000E-03,+2.05748735E+00
-9.86000E-03,+2.05748735E+00
-9.85000E-03,+2.05748735E+00
-9.84000E-03,+2.05748735E+00
-9.83000E-03,+2.05748735E+00
-9.82000E-03,+2.10572855E+00
-9.81000E-03,+2.01226122E+00
-9.80000E-03,+2.06050242E+00
-9.79000E-03,+2.10572855E+00
-9.78000E-03,+2.05748735E+00
-9.77000E-03,+2.01226122E+00
-9.76000E-03,+2.05748735E+00
-9.75000E-03,+2.01226122E+00
-9.74000E-03,+2.05748735E+00
-9.73000E-03,+2.05748735E+00
-9.72000E-03,+2.05748735E+00
-9.71000E-03,+2.00924614E+00
-9.70000E-03,+1.96402001E+00
-9.69000E-03,+2.01226122E+00
-9.68000E-03,+2.05748735E+00
-9.67000E-03,+2.00924614E+00
-9.66000E-03,+1.96402001E+00
-9.65000E-03,+2.00924614E+00
-9.64000E-03,+2.00924614E+00
-9.63000E-03,+2.00924614E+00
-9.62000E-03,+1.96100494E+00
-9.61000E-03,+1.96402001E+00
-9.60000E-03,+1.96100494E+00
-9.59000E-03,+1.91276373E+00
-9.58000E-03,+1.86452252E+00
-9.57000E-03,+1.86452252E+00
-9.56000E-03,+1.81929639E+00
-9.55000E-03,+1.81628132E+00
-9.54000E-03,+1.76804011E+00
-9.53000E-03,+1.81628132E+00
-9.52000E-03,+1.76804011E+00
-9.51000E-03,+1.71979891E+00
-9.50000E-03,+1.71979891E+00
-9.49000E-03,+1.67155770E+00
-9.48000E-03,+1.67155770E+00
-9.47000E-03,+1.62331650E+00
-9.46000E-03,+1.57507529E+00
-9.45000E-03,+1.57507529E+00
-9.44000E-03,+1.48160796E+00
-9.43000E-03,+1.43336675E+00
-9.42000E-03,+1.47859288E+00
-9.41000E-03,+1.43035167E+00
-9.40000E-03,+1.43035167E+00
-9.39000E-03,+1.38211047E+00
-9.38000E-03,+1.33386926E+00
-9.37000E-03,+1.28562806E+00
-9.36000E-03,+1.23738685E+00
-9.35000E-03,+1.14090444E+00
-9.34000E-03,+1.14391952E+00
-9.33000E-03,+1.09266324E+00
-9.32000E-03,+1.09266324E+00
-9.31000E-03,+1.04442203E+00
-9.30000E-03,+996.18082E-03
-9.29000E-03,+996.18082E-03
-9.28000E-03,+999.19590E-03
-9.27000E-03,+996.18082E-03
-9.26000E-03,+996.18082E-03
-9.25000E-03,+996.18082E-03
-9.24000E-03,+996.18082E-03
-9.23000E-03,+996.18082E-03
-9.22000E-03,+950.95469E-03
-9.21000E-03,+947.93962E-03
-9.20000E-03,+947.93962E-03
-9.19000E-03,+947.93962E-03
-9.18000E-03,+902.71349E-03
-9.17000E-03,+947.93962E-03
-9.16000E-03,+947.93962E-03
-9.15000E-03,+947.93962E-03
-9.14000E-03,+950.95469E-03
-9.13000E-03,+947.93962E-03
-9.12000E-03,+996.18082E-03
-9.11000E-03,+950.95469E-03
-9.10000E-03,+947.93962E-03
-9.09000E-03,+996.18082E-03
-9.08000E-03,+947.93962E-03
-9.07000E-03,+947.93962E-03
-9.06000E-03,+947.93962E-03
-9.05000E-03,+902.71349E-03
-9.04000E-03,+950.95469E-03
-9.03000E-03,+947.93962E-03
-9.02000E-03,+902.71349E-03
-9.01000E-03,+947.93962E-03
-9.00000E-03,+996.18082E-03
-8.99000E-03,+950.95469E-03
-8.98000E-03,+950.95469E-03
-8.97000E-03,+996.18082E-03
-8.96000E-03,+1.04442203E+00
-8.95000E-03,+1.04442203E+00
-8.94000E-03,+1.04442203E+00
-8.93000E-03,+1.09266324E+00
-8.92000E-03,+1.09266324E+00
-8.91000E-03,+1.09266324E+00
-8.90000E-03,+1.09567831E+00
-8.89000E-03,+1.14090444E+00
-8.88000E-03,+1.09567831E+00
-8.87000E-03,+1.14090444E+00
-8.86000E-03,+1.14090444E+00
-8.85000E-03,+1.14090444E+00
-8.84000E-03,+1.14090444E+00
-8.83000E-03,+1.14090444E+00
-8.82000E-03,+1.18914565E+00
-8.81000E-03,+1.14391952E+00
-8.80000E-03,+1.14090444E+00
-8.79000E-03,+1.04743711E+00
-8.78000E-03,+1.04743711E+00
-8.77000E-03,+1.09266324E+00
-8.76000E-03,+1.09266324E+00
-8.75000E-03,+996.18082E-03
-8.74000E-03,+999.19590E-03
-8.73000E-03,+947.93962E-03
-8.72000E-03,+950.95469E-03
-8.71000E-03,+950.95469E-03
-8.70000E-03,+947.93962E-03
-8.69000E-03,+947.93962E-03
-8.68000E-03,+947.93962E-03
-8.67000E-03,+947.93962E-03
-8.66000E-03,+950.95469E-03
-8.65000E-03,+902.71349E-03
-8.64000E-03,+947.93962E-03
-8.63000E-03,+947.93962E-03
-8.62000E-03,+947.93962E-03
-8.61000E-03,+947.93962E-03
-8.60000E-03,+947.93962E-03
-8.59000E-03,+947.93962E-03
-8.58000E-03,+947.93962E-03
-8.57000E-03,+947.93962E-03
-8.56000E-03,+996.18082E-03
-8.55000E-03,+996.18082E-03
-8.54000E-03,+947.93962E-03
-8.53000E-03,+947.93962E-03
-8.52000E-03,+996.18082E-03
-8.51000E-03,+947.93962E-03
-8.50000E-03,+947.93962E-03
-8.49000E-03,+902.71349E-03
-8.48000E-03,+947.93962E-03
-8.47000E-03,+947.93962E-03
-8.46000E-03,+947.93962E-03
-8.45000E-03,+902.71349E-03
-8.44000E-03,+902.71349E-03
-8.43000E-03,+950.95469E-03
-8.42000E-03,+902.71349E-03
-8.41000E-03,+947.93962E-03
-8.40000E-03,+947.93962E-03
-8.39000E-03,+947.93962E-03
-8.38000E-03,+902.71349E-03
-8.37000E-03,+947.93962E-03
-8.36000E-03,+996.18082E-03
-8.35000E-03,+947.93962E-03
-8.34000E-03,+902.71349E-03
-8.33000E-03,+947.93962E-03
-8.32000E-03,+996.18082E-03
-8.31000E-03,+947.93962E-03
-8.30000E-03,+947.93962E-03
-8.29000E-03,+996.18082E-03
-8.28000E-03,+996.18082E-03
-8.27000E-03,+996.18082E-03
-8.26000E-03,+947.93962E-03
-8.25000E-03,+950.95469E-03
-8.24000E-03,+902.71349E-03
-8.23000E-03,+947.93962E-03
-8.22000E-03,+996.18082E-03
-8.21000E-03,+996.18082E-03
-8.20000E-03,+950.95469E-03
-8.19000E-03,+947.93962E-03
-8.18000E-03,+950.95469E-03
-8.17000E-03,+996.18082E-03
-8.16000E-03,+996.18082E-03
-8.15000E-03,+950.95469E-03
-8.14000E-03,+947.93962E-03
-8.13000E-03,+996.18082E-03
-8.12000E-03,+950.95469E-03
-8.11000E-03,+947.93962E-03
-8.10000E-03,+947.93962E-03
-8.09000E-03,+996.18082E-03
-8.08000E-03,+996.18082E-03
-8.07000E-03,+947.93962E-03
-8.06000E-03,+902.71349E-03
-8.05000E-03,+947.93962E-03
-8.04000E-03,+996.18082E-03
-8.03000E-03,+947.93962E-03
-8.02000E-03,+996.18082E-03
-8.01000E-03,+950.95469E-03
-8.00000E-03,+950.95469E-03
-7.99000E-03,+950.95469E-03
-7.98000E-03,+947.93962E-03
-7.97000E-03,+947.93962E-03
-7.96000E-03,+950.95469E-03
-7.95000E-03,+947.93962E-03
-7.94000E-03,+996.18082E-03
-7.93000E-03,+996.18082E-03
-7.92000E-03,+947.93962E-03
-7.91000E-03,+947.93962E-03
-7.90000E-03,+996.18082E-03
-7.89000E-03,+1.04442203E+00
-7.88000E-03,+950.95469E-03
-7.87000E-03,+947.93962E-03
-7.86000E-03,+947.93962E-03
-7.85000E-03,+996.18082E-03
-7.84000E-03,+996.18082E-03
-7.83000E-03,+996.18082E-03
-7.82000E-03,+947.93962E-03
-7.81000E-03,+996.18082E-03
-7.80000E-03,+947.93962E-03
-7.79000E-03,+996.18082E-03
-7.78000E-03,+996.18082E-03
-7.77000E-03,+947.93962E-03
-7.76000E-03,+947.93962E-03
-7.75000E-03,+996.18082E-03
-7.74000E-03,+996.18082E-03
-7.73000E-03,+996.18082E-03
-7.72000E-03,+996.18082E-03
-7.71000E-03,+996.18082E-03
-7.70000E-03,+999.19590E-03
-7.69000E-03,+950.95469E-03
-7.68000E-03,+950.95469E-03
-7.67000E-03,+996.18082E-03
-7.66000E-03,+996.18082E-03
-7.65000E-03,+996.18082E-03
-7.64000E-03,+950.95469E-03
-7.63000E-03,+996.18082E-03
-7.62000E-03,+950.95469E-03
-7.61000E-03,+950.95469E-03
-7.60000E-03,+996.18082E-03
-7.59000E-03,+996.18082E-03
-7.58000E-03,+950.95469E-03
-7.57000E-03,+996.18082E-03
-7.56000E-03,+950.95469E-03
-7.55000E-03,+996.18082E-03
-7.54000E-03,+950.95469E-03
-7.53000E-03,+996.18082E-03
-7.52000E-03,+996.18082E-03
-7.51000E-03,+950.95469E-03
-7.50000E-03,+950.95469E-03
-7.49000E-03,+996.18082E-03
-7.48000E-03,+950.95469E-03
-7.47000E-03,+996.18082E-03
-7.46000E-03,+996.18082E-03
-7.45000E-03,+996.18082E-03
-7.44000E-03,+950.95469E-03
-7.43000E-03,+950.95469E-03
-7.42000E-03,+947.93962E-03
-7.41000E-03,+996.18082E-03
-7.40000E-03,+996.18082E-03
-7.39000E-03,+996.18082E-03
-7.38000E-03,+996.18082E-03
-7.37000E-03,+996.18082E-03
-7.36000E-03,+947.93962E-03
-7.35000E-03,+950.95469E-03
-7.34000E-03,+947.93962E-03
-7.33000E-03,+996.18082E-03
-7.32000E-03,+947.93962E-03
-7.31000E-03,+996.18082E-03
-7.30000E-03,+950.95469E-03
-7.29000E-03,+950.95469E-03
-7.28000E-03,+996.18082E-03
-7.27000E-03,+947.93962E-03
-7.26000E-03,+996.18082E-03
-7.25000E-03,+996.18082E-03
-7.24000E-03,+996.18082E-03
-7.23000E-03,+947.93962E-03
-7.22000E-03,+996.18082E-03
-7.21000E-03,+996.18082E-03
-7.20000E-03,+947.93962E-03
-7.19000E-03,+996.18082E-03
-7.18000E-03,+996.18082E-03
-7.17000E-03,+996.18082E-03
-7.16000E-03,+996.18082E-03
-7.15000E-03,+996.18082E-03
-7.14000E-03,+996.18082E-03
-7.13000E-03,+996.18082E-03
-7.12000E-03,+996.18082E-03
-7.11000E-03,+996.18082E-03
-7.10000E-03,+950.95469E-03
-7.09000E-03,+996.18082E-03
-7.08000E-03,+996.18082E-03
-7.07000E-03,+996.18082E-03
-7.06000E-03,+996.18082E-03
-7.05000E-03,+999.19590E-03
-7.04000E-03,+996.18082E-03
-7.03000E-03,+1.04442203E+00
-7.02000E-03,+947.93962E-03
-7.01000E-03,+996.18082E-03
-7.00000E-03,+950.95469E-03
-6.99000E-03,+950.95469E-03
-6.98000E-03,+996.18082E-03
-6.97000E-03,+996.18082E-03
-6.96000E-03,+996.18082E-03
-6.95000E-03,+996.18082E-03
-6.94000E-03,+996.18082E-03
-6.93000E-03,+1.04442203E+00
-6.92000E-03,+1.09266324E+00
-6.91000E-03,+1.04743711E+00
-6.90000E-03,+1.14090444E+00
-6.89000E-03,+1.09567831E+00
-6.88000E-03,+1.14090444E+00
-6.87000E-03,+1.14391952E+00
-6.86000E-03,+1.23738685E+00
-6.85000E-03,+1.19216072E+00
-6.84000E-03,+1.23738685E+00
-6.83000E-03,+1.28562806E+00
-6.82000E-03,+1.28864313E+00
-6.81000E-03,+1.33386926E+00
-6.80000E-03,+1.33386926E+00
-6.79000E-03,+1.38211047E+00
-6.78000E-03,+1.38211047E+00
-6.77000E-03,+1.43035167E+00
-6.76000E-03,+1.43035167E+00
-6.75000E-03,+1.43035167E+00
-6.74000E-03,+1.43035167E+00
-6.73000E-03,+1.43336675E+00
-6.72000E-03,+1.47859288E+00
-6.71000E-03,+1.52683409E+00
-6.70000E-03,+1.48160796E+00
-6.69000E-03,+1.57507529E+00
-6.68000E-03,+1.57507529E+00
-6.67000E-03,+1.57507529E+00
-6.66000E-03,+1.57507529E+00
-6.65000E-03,+1.62331650E+00
-6.64000E-03,+1.62331650E+00
-6.63000E-03,+1.62331650E+00
-6.62000E-03,+1.62331650E+00
-6.61000E-03,+1.62331650E+00
-6.60000E-03,+1.62633157E+00
-6.59000E-03,+1.67155770E+00
-6.58000E-03,+1.67155770E+00
-6.57000E-03,+1.67155770E+00
-6.56000E-03,+1.67155770E+00
-6.55000E-03,+1.71979891E+00
-6.54000E-03,+1.67155770E+00
-6.53000E-03,+1.67155770E+00
-6.52000E-03,+1.67155770E+00
-6.51000E-03,+1.67155770E+00
-6.50000E-03,+1.62633157E+00
-6.49000E-03,+1.67155770E+00
-6.48000E-03,+1.62633157E+00
-6.47000E-03,+1.62633157E+00
-6.46000E-03,+1.62331650E+00
-6.45000E-03,+1.62331650E+00
-6.44000E-03,+1.52984916E+00
-6.43000E-03,+1.57507529E+00
-6.42000E-03,+1.52683409E+00
-6.41000E-03,+1.52683409E+00
-6.40000E-03,+1.43336675E+00
-6.39000E-03,+1.47859288E+00
-6.38000E-03,+1.43035167E+00
-6.37000E-03,+1.38211047E+00
-6.36000E-03,+1.33386926E+00
-6.35000E-03,+1.33386926E+00
-6.34000E-03,+1.28562806E+00
-6.33000E-03,+1.28562806E+00
-6.32000E-03,+1.23738685E+00
-6.31000E-03,+1.18914565E+00
-6.30000E-03,+1.14391952E+00
-6.29000E-03,+1.14090444E+00
-6.28000E-03,+1.09567831E+00
-6.27000E-03,+1.09266324E+00
-6.26000E-03,+999.19590E-03
-6.25000E-03,+999.19590E-03
-6.24000E-03,+999.19590E-03
-6.23000E-03,+996.18082E-03
-6.22000E-03,+947.93962E-03
-6.21000E-03,+996.18082E-03
-6.20000E-03,+950.95469E-03
-6.19000E-03,+947.93962E-03
-6.18000E-03,+947.93962E-03
-6.17000E-03,+996.18082E-03
-6.16000E-03,+947.93962E-03
-6.15000E-03,+947.93962E-03
-6.14000E-03,+950.95469E-03
-6.13000E-03,+902.71349E-03
-6.12000E-03,+950.95469E-03
-6.11000E-03,+996.18082E-03
-6.10000E-03,+996.18082E-03
-6.09000E-03,+947.93962E-03
-6.08000E-03,+950.95469E-03
-6.07000E-03,+950.95469E-03
-6.06000E-03,+996.18082E-03
-6.05000E-03,+996.18082E-03
-6.04000E-03,+996.18082E-03
-6.03000E-03,+996.18082E-03
-6.02000E-03,+947.93962E-03
-6.01000E-03,+996.18082E-03
-6.00000E-03,+996.18082E-03
-5.99000E-03,+996.18082E-03
-5.98000E-03,+947.93962E-03
-5.97000E-03,+950.95469E-03
-5.96000E-03,+996.18082E-03
-5.95000E-03,+996.18082E-03
-5.94000E-03,+996.18082E-03
-5.93000E-03,+947.93962E-03
-5.92000E-03,+947.93962E-03
-5.91000E-03,+947.93962E-03
-5.90000E-03,+996.18082E-03
-5.89000E-03,+996.18082E-03
-5.88000E-03,+996.18082E-03
-5.87000E-03,+996.18082E-03
-5.86000E-03,+996.18082E-03
-5.85000E-03,+996.18082E-03
-5.84000E-03,+996.18082E-03
-5.83000E-03,+996.18082E-03
-5.82000E-03,+996.18082E-03
-5.81000E-03,+996.18082E-03
-5.80000E-03,+999.19590E-03
-5.79000E-03,+950.95469E-03
-5.78000E-03,+950.95469E-03
-5.77000E-03,+996.18082E-03
-5.76000E-03,+996.18082E-03
-5.75000E-03,+950.95469E-03
-5.74000E-03,+996.18082E-03
-5.73000E-03,+947.93962E-03
-5.72000E-03,+899.69841E-03
-5.71000E-03,+899.69841E-03
-5.70000E-03,+851.45721E-03
-5.69000E-03,+803.21600E-03
-5.68000E-03,+754.97480E-03
-5.67000E-03,+658.49239E-03
-5.66000E-03,+562.00998E-03
-5.65000E-03,+417.28636E-03
-5.64000E-03,+369.04515E-03
-5.63000E-03,+372.06023E-03
-5.62000E-03,+513.76877E-03
-5.61000E-03,+706.73359E-03
-5.60000E-03,+996.18082E-03
-5.59000E-03,+1.23738685E+00
-5.58000E-03,+1.62331650E+00
-5.57000E-03,+1.96100494E+00
-5.56000E-03,+2.29869337E+00
-5.55000E-03,+2.63638181E+00
-5.54000E-03,+2.97708533E+00
-5.53000E-03,+3.40522603E+00
-5.52000E-03,+3.74592954E+00
-5.51000E-03,+4.18010039E+00
-5.50000E-03,+4.51778883E+00
-5.49000E-03,+4.90371847E+00
-5.48000E-03,+5.33487425E+00
-5.47000E-03,+5.72080389E+00
-5.46000E-03,+6.01025112E+00
-5.45000E-03,+6.15798981E+00
-5.44000E-03,+6.15798981E+00
-5.43000E-03,+6.06150740E+00
-5.42000E-03,+5.86854258E+00
-5.41000E-03,+5.62733655E+00
-5.40000E-03,+5.38613053E+00
-5.39000E-03,+5.09668329E+00
-5.38000E-03,+4.75899485E+00
-5.37000E-03,+4.37306521E+00
-5.36000E-03,+3.98713557E+00
-5.35000E-03,+3.60120592E+00
-5.34000E-03,+3.26351748E+00
-5.33000E-03,+2.83236171E+00
-5.32000E-03,+2.49165820E+00
-5.31000E-03,+2.05748735E+00
-5.30000E-03,+1.62633157E+00
-5.29000E-03,+1.28562806E+00
-5.28000E-03,+806.23108E-03
-5.27000E-03,+468.54264E-03
-5.26000E-03,+179.09541E-03
-5.25000E-03,+127.83913E-03
-5.24000E-03,+79.59792E-03
-5.23000E-03,+79.59792E-03
-5.22000E-03,+176.08033E-03
-5.21000E-03,+176.08033E-03
-5.20000E-03,+320.80395E-03
-5.19000E-03,+372.06023E-03
-5.18000E-03,+468.54264E-03
-5.17000E-03,+562.00998E-03
-5.16000E-03,+613.26626E-03
-5.15000E-03,+706.73359E-03
-5.14000E-03,+757.98987E-03
-5.13000E-03,+851.45721E-03
-5.12000E-03,+854.47228E-03
-5.11000E-03,+947.93962E-03
-5.10000E-03,+947.93962E-03
-5.09000E-03,+902.71349E-03
-5.08000E-03,+950.95469E-03
-5.07000E-03,+947.93962E-03
-5.06000E-03,+996.18082E-03
-5.05000E-03,+996.18082E-03
-5.04000E-03,+996.18082E-03
-5.03000E-03,+996.18082E-03
-5.02000E-03,+947.93962E-03
-5.01000E-03,+996.18082E-03
-5.00000E-03,+947.93962E-03
-4.99000E-03,+996.18082E-03
-4.98000E-03,+947.93962E-03
-4.97000E-03,+950.95469E-03
-4.96000E-03,+996.18082E-03
-4.95000E-03,+950.95469E-03
-4.94000E-03,+1.04442203E+00
-4.93000E-03,+996.18082E-03
-4.92000E-03,+996.18082E-03
-4.91000E-03,+996.18082E-03
-4.90000E-03,+996.18082E-03
-4.89000E-03,+1.04442203E+00
-4.88000E-03,+950.95469E-03
-4.87000E-03,+996.18082E-03
-4.86000E-03,+996.18082E-03
-4.85000E-03,+950.95469E-03
-4.84000E-03,+996.18082E-03
-4.83000E-03,+996.18082E-03
-4.82000E-03,+996.18082E-03
-4.81000E-03,+996.18082E-03
-4.80000E-03,+996.18082E-03
-4.79000E-03,+996.18082E-03
-4.78000E-03,+996.18082E-03
-4.77000E-03,+950.95469E-03
-4.76000E-03,+996.18082E-03
-4.75000E-03,+950.95469E-03
-4.74000E-03,+1.04442203E+00
-4.73000E-03,+950.95469E-03
-4.72000E-03,+996.18082E-03
-4.71000E-03,+996.18082E-03
-4.70000E-03,+950.95469E-03
-4.69000E-03,+950.95469E-03
-4.68000E-03,+996.18082E-03
-4.67000E-03,+996.18082E-03
-4.66000E-03,+996.18082E-03
-4.65000E-03,+996.18082E-03
-4.64000E-03,+950.95469E-03
-4.63000E-03,+1.04442203E+00
-4.62000E-03,+947.93962E-03
-4.61000E-03,+996.18082E-03
-4.60000E-03,+996.18082E-03
-4.59000E-03,+1.04442203E+00
-4.58000E-03,+996.18082E-03
-4.57000E-03,+950.95469E-03
-4.56000E-03,+996.18082E-03
-4.55000E-03,+950.95469E-03
-4.54000E-03,+950.95469E-03
-4.53000E-03,+996.18082E-03
-4.52000E-03,+950.95469E-03
-4.51000E-03,+996.18082E-03
-4.50000E-03,+999.19590E-03
-4.49000E-03,+996.18082E-03
-4.48000E-03,+1.04442203E+00
-4.47000E-03,+999.19590E-03
-4.46000E-03,+996.18082E-03
-4.45000E-03,+996.18082E-03
-4.44000E-03,+996.18082E-03
-4.43000E-03,+950.95469E-03
-4.42000E-03,+996.18082E-03
-4.41000E-03,+996.18082E-03
-4.40000E-03,+996.18082E-03
-4.39000E-03,+1.04442203E+00
-4.38000E-03,+996.18082E-03
-4.37000E-03,+999.19590E-03
-4.36000E-03,+996.18082E-03
-4.35000E-03,+996.18082E-03
-4.34000E-03,+996.18082E-03
-4.33000E-03,+996.18082E-03
-4.32000E-03,+996.18082E-03
-4.31000E-03,+996.18082E-03
-4.30000E-03,+996.18082E-03
-4.29000E-03,+999.19590E-03
-4.28000E-03,+996.18082E-03
-4.27000E-03,+996.18082E-03
-4.26000E-03,+996.18082E-03
-4.25000E-03,+996.18082E-03
-4.24000E-03,+996.18082E-03
-4.23000E-03,+1.04442203E+00
-4.22000E-03,+950.95469E-03
-4.21000E-03,+999.19590E-03
-4.20000E-03,+999.19590E-03
-4.19000E-03,+999.19590E-03
-4.18000E-03,+996.18082E-03
-4.17000E-03,+1.04442203E+00
-4.16000E-03,+996.18082E-03
-4.15000E-03,+999.19590E-03
-4.14000E-03,+1.04442203E+00
-4.13000E-03,+1.04442203E+00
-4.12000E-03,+1.09266324E+00
-4.11000E-03,+1.09567831E+00
-4.10000E-03,+1.14090444E+00
-4.09000E-03,+1.09266324E+00
-4.08000E-03,+1.09567831E+00
-4.07000E-03,+1.09567831E+00
-4.06000E-03,+1.18914565E+00
-4.05000E-03,+1.18914565E+00
-4.04000E-03,+1.18914565E+00
-4.03000E-03,+1.18914565E+00
-4.02000E-03,+1.23738685E+00
-4.01000E-03,+1.24040193E+00
-4.00000E-03,+1.23738685E+00
-3.99000E-03,+1.24040193E+00
-3.98000E-03,+1.33386926E+00
-3.97000E-03,+1.28562806E+00
-3.96000E-03,+1.33386926E+00
-3.95000E-03,+1.33386926E+00
-3.94000E-03,+1.38211047E+00
-3.93000E-03,+1.33688434E+00
-3.92000E-03,+1.38211047E+00
-3.91000E-03,+1.43035167E+00
-3.90000E-03,+1.43035167E+00
-3.89000E-03,+1.43035167E+00
-3.88000E-03,+1.43035167E+00
-3.87000E-03,+1.52683409E+00
-3.86000E-03,+1.47859288E+00
-3.85000E-03,+1.47859288E+00
-3.84000E-03,+1.48160796E+00
-3.83000E-03,+1.52683409E+00
-3.82000E-03,+1.52984916E+00
-3.81000E-03,+1.57507529E+00
-3.80000E-03,+1.57507529E+00
-3.79000E-03,+1.57507529E+00
-3.78000E-03,+1.57507529E+00
-3.77000E-03,+1.57507529E+00
-3.76000E-03,+1.62331650E+00
-3.75000E-03,+1.62331650E+00
-3.74000E-03,+1.62331650E+00
-3.73000E-03,+1.67155770E+00
-3.72000E-03,+1.67155770E+00
-3.71000E-03,+1.67155770E+00
-3.70000E-03,+1.71979891E+00
-3.69000E-03,+1.71979891E+00
-3.68000E-03,+1.71979891E+00
-3.67000E-03,+1.76804011E+00
-3.66000E-03,+1.76804011E+00
-3.65000E-03,+1.71979891E+00
-3.64000E-03,+1.76804011E+00
-3.63000E-03,+1.76804011E+00
-3.62000E-03,+1.77105519E+00
-3.61000E-03,+1.86452252E+00
-3.60000E-03,+1.81628132E+00
-3.59000E-03,+1.81628132E+00
-3.58000E-03,+1.86452252E+00
-3.57000E-03,+1.81628132E+00
-3.56000E-03,+1.86452252E+00
-3.55000E-03,+1.86452252E+00
-3.54000E-03,+1.86452252E+00
-3.53000E-03,+1.86452252E+00
-3.52000E-03,+1.91276373E+00
-3.51000E-03,+1.91276373E+00
-3.50000E-03,+1.91276373E+00
-3.49000E-03,+1.91577881E+00
-3.48000E-03,+1.91276373E+00
-3.47000E-03,+1.91276373E+00
-3.46000E-03,+1.91577881E+00
-3.45000E-03,+1.96100494E+00
-3.44000E-03,+1.91577881E+00
-3.43000E-03,+1.96100494E+00
-3.42000E-03,+2.00924614E+00
-3.41000E-03,+1.96100494E+00
-3.40000E-03,+1.96100494E+00
-3.39000E-03,+1.96402001E+00
-3.38000E-03,+2.00924614E+00
-3.37000E-03,+1.96402001E+00
-3.36000E-03,+1.96402001E+00
-3.35000E-03,+2.00924614E+00
-3.34000E-03,+2.00924614E+00
-3.33000E-03,+2.00924614E+00
-3.32000E-03,+2.01226122E+00
-3.31000E-03,+2.01226122E+00
-3.30000E-03,+2.05748735E+00
-3.29000E-03,+2.10572855E+00
-3.28000E-03,+2.00924614E+00
-3.27000E-03,+2.06050242E+00
-3.26000E-03,+2.05748735E+00
-3.25000E-03,+2.05748735E+00
-3.24000E-03,+2.05748735E+00
-3.23000E-03,+2.05748735E+00
-3.22000E-03,+2.10572855E+00
-3.21000E-03,+2.05748735E+00
-3.20000E-03,+2.05748735E+00
-3.19000E-03,+2.10572855E+00
-3.18000E-03,+2.10572855E+00
-3.17000E-03,+2.10572855E+00
-3.16000E-03,+2.06050242E+00
-3.15000E-03,+2.10572855E+00
-3.14000E-03,+2.15396976E+00
-3.13000E-03,+2.06050242E+00
-3.12000E-03,+2.10572855E+00
-3.11000E-03,+2.10572855E+00
-3.10000E-03,+2.10572855E+00
-3.09000E-03,+2.10572855E+00
-3.08000E-03,+2.10572855E+00
-3.07000E-03,+2.10572855E+00
-3.06000E-03,+2.10572855E+00
-3.05000E-03,+2.10572855E+00
-3.04000E-03,+2.05748735E+00
-3.03000E-03,+2.01226122E+00
-3.02000E-03,+2.05748735E+00
-3.01000E-03,+2.05748735E+00
-3.00000E-03,+2.01226122E+00
-2.99000E-03,+2.10572855E+00
-2.98000E-03,+2.01226122E+00
-2.97000E-03,+2.01226122E+00
-2.96000E-03,+2.01226122E+00
-2.95000E-03,+2.01226122E+00
-2.94000E-03,+2.00924614E+00
-2.93000E-03,+1.96100494E+00
-2.92000E-03,+1.91276373E+00
-2.91000E-03,+1.91276373E+00
-2.90000E-03,+1.91276373E+00
-2.89000E-03,+1.86753760E+00
-2.88000E-03,+1.86452252E+00
-2.87000E-03,+1.81628132E+00
-2.86000E-03,+1.81628132E+00
-2.85000E-03,+1.81628132E+00
-2.84000E-03,+1.72281398E+00
-2.83000E-03,+1.67457278E+00
-2.82000E-03,+1.67155770E+00
-2.81000E-03,+1.67155770E+00
-2.80000E-03,+1.62331650E+00
-2.79000E-03,+1.57809037E+00
-2.78000E-03,+1.52984916E+00
-2.77000E-03,+1.57507529E+00
-2.76000E-03,+1.47859288E+00
-2.75000E-03,+1.52683409E+00
-2.74000E-03,+1.43035167E+00
-2.73000E-03,+1.38211047E+00
-2.72000E-03,+1.38211047E+00
-2.71000E-03,+1.38211047E+00
-2.70000E-03,+1.28562806E+00
-2.69000E-03,+1.28562806E+00
-2.68000E-03,+1.18914565E+00
-2.67000E-03,+1.14090444E+00
-2.66000E-03,+1.14090444E+00
-2.65000E-03,+1.14090444E+00
-2.64000E-03,+1.09266324E+00
-2.63000E-03,+1.04442203E+00
-2.62000E-03,+1.09266324E+00
-2.61000E-03,+1.04442203E+00
-2.60000E-03,+1.04442203E+00
-2.59000E-03,+1.04442203E+00
-2.58000E-03,+996.18082E-03
-2.57000E-03,+1.04442203E+00
-2.56000E-03,+996.18082E-03
-2.55000E-03,+999.19590E-03
-2.54000E-03,+996.18082E-03
-2.53000E-03,+996.18082E-03
-2.52000E-03,+950.95469E-03
-2.51000E-03,+996.18082E-03
-2.50000E-03,+999.19590E-03
-2.49000E-03,+996.18082E-03
-2.48000E-03,+996.18082E-03
-2.47000E-03,+1.04442203E+00
-2.46000E-03,+996.18082E-03
-2.45000E-03,+999.19590E-03
-2.44000E-03,+996.18082E-03
-2.43000E-03,+996.18082E-03
-2.42000E-03,+999.19590E-03
-2.41000E-03,+1.04442203E+00
-2.40000E-03,+1.04442203E+00
-2.39000E-03,+999.19590E-03
-2.38000E-03,+1.04442203E+00
-2.37000E-03,+999.19590E-03
-2.36000E-03,+950.95469E-03
-2.35000E-03,+1.04442203E+00
-2.34000E-03,+1.04442203E+00
-2.33000E-03,+999.19590E-03
-2.32000E-03,+1.04442203E+00
-2.31000E-03,+1.04743711E+00
-2.30000E-03,+1.04743711E+00
-2.29000E-03,+1.04442203E+00
-2.28000E-03,+1.09266324E+00
-2.27000E-03,+1.14090444E+00
-2.26000E-03,+1.18914565E+00
-2.25000E-03,+1.18914565E+00
-2.24000E-03,+1.18914565E+00
-2.23000E-03,+1.18914565E+00
-2.22000E-03,+1.18914565E+00
-2.21000E-03,+1.18914565E+00
-2.20000E-03,+1.19216072E+00
-2.19000E-03,+1.19216072E+00
-2.18000E-03,+1.18914565E+00
-2.17000E-03,+1.23738685E+00
-2.16000E-03,+1.18914565E+00
-2.15000E-03,+1.23738685E+00
-2.14000E-03,+1.18914565E+00
-2.13000E-03,+1.19216072E+00
-2.12000E-03,+1.14391952E+00
-2.11000E-03,+1.09567831E+00
-2.10000E-03,+1.14090444E+00
-2.09000E-03,+1.09567831E+00
-2.08000E-03,+1.04743711E+00
-2.07000E-03,+1.04442203E+00
-2.06000E-03,+1.04442203E+00
-2.05000E-03,+1.04442203E+00
-2.04000E-03,+1.04442203E+00
-2.03000E-03,+1.04442203E+00
-2.02000E-03,+1.04442203E+00
-2.01000E-03,+1.04442203E+00
-2.00000E-03,+996.18082E-03
-1.99000E-03,+996.18082E-03
-1.98000E-03,+1.04442203E+00
-1.97000E-03,+950.95469E-03
-1.96000E-03,+996.18082E-03
-1.95000E-03,+996.18082E-03
-1.94000E-03,+996.18082E-03
-1.93000E-03,+996.18082E-03
-1.92000E-03,+996.18082E-03
-1.91000E-03,+996.18082E-03
-1.90000E-03,+996.18082E-03
-1.89000E-03,+996.18082E-03
-1.88000E-03,+947.93962E-03
-1.87000E-03,+996.18082E-03
-1.86000E-03,+950.95469E-03
-1.85000E-03,+996.18082E-03
-1.84000E-03,+996.18082E-03
-1.83000E-03,+999.19590E-03
-1.82000E-03,+996.18082E-03
-1.81000E-03,+950.95469E-03
-1.80000E-03,+996.18082E-03
-1.79000E-03,+996.18082E-03
-1.78000E-03,+1.04442203E+00
-1.77000E-03,+950.95469E-03
-1.76000E-03,+996.18082E-03
-1.75000E-03,+947.93962E-03
-1.74000E-03,+996.18082E-03
-1.73000E-03,+950.95469E-03
-1.72000E-03,+996.18082E-03
-1.71000E-03,+996.18082E-03
-1.70000E-03,+996.18082E-03
-1.69000E-03,+996.18082E-03
-1.68000E-03,+950.95469E-03
-1.67000E-03,+996.18082E-03
-1.66000E-03,+950.95469E-03
-1.65000E-03,+999.19590E-03
-1.64000E-03,+999.19590E-03
-1.63000E-03,+996.18082E-03
-1.62000E-03,+950.95469E-03
-1.61000E-03,+950.95469E-03
-1.60000E-03,+996.18082E-03
-1.59000E-03,+996.18082E-03
-1.58000E-03,+996.18082E-03
-1.57000E-03,+999.19590E-03
-1.56000E-03,+1.04442203E+00
-1.55000E-03,+996.18082E-03
-1.54000E-03,+999.19590E-03
-1.53000E-03,+999.19590E-03
-1.52000E-03,+996.18082E-03
-1.51000E-03,+996.18082E-03
-1.50000E-03,+996.18082E-03
-1.49000E-03,+996.18082E-03
-1.48000E-03,+996.18082E-03
-1.47000E-03,+996.18082E-03
-1.46000E-03,+947.93962E-03
-1.45000E-03,+996.18082E-03
-1.44000E-03,+996.18082E-03
-1.43000E-03,+996.18082E-03
-1.42000E-03,+996.18082E-03
-1.41000E-03,+950.95469E-03
-1.40000E-03,+1.04442203E+00
-1.39000E-03,+996.18082E-03
-1.38000E-03,+996.18082E-03
-1.37000E-03,+996.18082E-03
-1.36000E-03,+996.18082E-03
-1.35000E-03,+1.04442203E+00
-1.34000E-03,+950.95469E-03
-1.33000E-03,+996.18082E-03
-1.32000E-03,+996.18082E-03
-1.31000E-03,+996.18082E-03
-1.30000E-03,+996.18082E-03
-1.29000E-03,+996.18082E-03
-1.28000E-03,+996.18082E-03
-1.27000E-03,+996.18082E-03
-1.26000E-03,+999.19590E-03
-1.25000E-03,+950.95469E-03
-1.24000E-03,+999.19590E-03
-1.23000E-03,+1.04442203E+00
-1.22000E-03,+999.19590E-03
-1.21000E-03,+1.04442203E+00
-1.20000E-03,+950.95469E-03
-1.19000E-03,+996.18082E-03
-1.18000E-03,+996.18082E-03
-1.17000E-03,+999.19590E-03
-1.16000E-03,+996.18082E-03
-1.15000E-03,+1.04442203E+00
-1.14000E-03,+996.18082E-03
-1.13000E-03,+999.19590E-03
-1.12000E-03,+996.18082E-03
-1.11000E-03,+996.18082E-03
-1.10000E-03,+996.18082E-03
-1.09000E-03,+950.95469E-03
-1.08000E-03,+996.18082E-03
-1.07000E-03,+999.19590E-03
-1.06000E-03,+996.18082E-03
-1.05000E-03,+996.18082E-03
-1.04000E-03,+996.18082E-03
-1.03000E-03,+996.18082E-03
-1.02000E-03,+996.18082E-03
-1.01000E-03,+996.18082E-03
-1.00000E-03,+996.18082E-03
-990.00E-06,+996.18082E-03
-980.00E-06,+999.19590E-03
-970.00E-06,+950.95469E-03
-960.00E-06,+996.18082E-03
-950.00E-06,+999.19590E-03
-940.00E-06,+999.19590E-03
-930.00E-06,+1.04442203E+00
-920.00E-06,+996.18082E-03
-910.00E-06,+996.18082E-03
-900.00E-06,+1.04442203E+00
-890.00E-06,+996.18082E-03
-880.00E-06,+1.04442203E+00
-870.00E-06,+996.18082E-03
-860.00E-06,+996.18082E-03
-850.00E-06,+950.95469E-03
-840.00E-06,+996.18082E-03
-830.00E-06,+1.04442203E+00
-820.00E-06,+996.18082E-03
-810.00E-06,+996.18082E-03
-800.00E-06,+996.18082E-03
-790.00E-06,+999.19590E-03
-780.00E-06,+999.19590E-03
-770.00E-06,+996.18082E-03
-760.00E-06,+999.19590E-03
-750.00E-06,+996.18082E-03
-740.00E-06,+1.04442203E+00
-730.00E-06,+996.18082E-03
-720.00E-06,+1.04442203E+00
-710.00E-06,+1.04442203E+00
-700.00E-06,+996.18082E-03
-690.00E-06,+1.04442203E+00
-680.00E-06,+1.04442203E+00
-670.00E-06,+996.18082E-03
-660.00E-06,+999.19590E-03
-650.00E-06,+996.18082E-03
-640.00E-06,+996.18082E-03
-630.00E-06,+999.19590E-03
-620.00E-06,+1.04442203E+00
-610.00E-06,+999.19590E-03
-600.00E-06,+1.04442203E+00
-590.00E-06,+996.18082E-03
-580.00E-06,+1.04442203E+00
-570.00E-06,+1.04442203E+00
-560.00E-06,+1.04442203E+00
-550.00E-06,+1.04442203E+00
-540.00E-06,+999.19590E-03
-530.00E-06,+999.19590E-03
-520.00E-06,+996.18082E-03
-510.00E-06,+996.18082E-03
-500.00E-06,+1.04442203E+00
-490.00E-06,+1.04442203E+00
-480.00E-06,+1.04442203E+00
-470.00E-06,+996.18082E-03
-460.00E-06,+1.04442203E+00
-450.00E-06,+1.04442203E+00
-440.00E-06,+1.04442203E+00
-430.00E-06,+1.04442203E+00
-420.00E-06,+1.04442203E+00
-410.00E-06,+996.18082E-03
-400.00E-06,+1.04442203E+00
-390.00E-06,+1.09266324E+00
-380.00E-06,+1.04442203E+00
-370.00E-06,+999.19590E-03
-360.00E-06,+1.04442203E+00
-350.00E-06,+999.19590E-03
-340.00E-06,+1.04442203E+00
-330.00E-06,+996.18082E-03
-320.00E-06,+999.19590E-03
-310.00E-06,+999.19590E-03
-300.00E-06,+999.19590E-03
-290.00E-06,+1.09266324E+00
-280.00E-06,+1.04442203E+00
-270.00E-06,+1.09266324E+00
-260.00E-06,+1.04743711E+00
-250.00E-06,+1.09266324E+00
-240.00E-06,+1.14090444E+00
-230.00E-06,+1.14391952E+00
-220.00E-06,+1.14391952E+00
-210.00E-06,+1.23738685E+00
-200.00E-06,+1.23738685E+00
-190.00E-06,+1.24040193E+00
-180.00E-06,+1.28562806E+00
-170.00E-06,+1.33386926E+00
-160.00E-06,+1.33386926E+00
-150.00E-06,+1.38211047E+00
-140.00E-06,+1.38211047E+00
-130.00E-06,+1.43035167E+00
-120.00E-06,+1.38512554E+00
-110.00E-06,+1.43035167E+00
-100.00E-06,+1.43336675E+00
-90.00E-06,+1.47859288E+00
-80.00E-06,+1.47859288E+00
-70.00E-06,+1.47859288E+00
-60.00E-06,+1.47859288E+00
-50.00E-06,+1.52683409E+00
-40.00E-06,+1.52683409E+00
-30.00E-06,+1.52683409E+00
-20.00E-06,+1.57507529E+00
-10.00E-06,+1.57809037E+00
-0.0E+00,+1.62331650E+00
+10.00E-06,+1.62331650E+00
+20.00E-06,+1.62331650E+00
+30.00E-06,+1.62331650E+00
+40.00E-06,+1.67155770E+00
+50.00E-06,+1.62633157E+00
+60.00E-06,+1.71979891E+00
+70.00E-06,+1.71979891E+00
+80.00E-06,+1.71979891E+00
+90.00E-06,+1.76804011E+00
+100.00E-06,+1.71979891E+00
+110.00E-06,+1.71979891E+00
+120.00E-06,+1.71979891E+00
+130.00E-06,+1.71979891E+00
+140.00E-06,+1.77105519E+00
+150.00E-06,+1.72281398E+00
+160.00E-06,+1.71979891E+00
+170.00E-06,+1.71979891E+00
+180.00E-06,+1.71979891E+00
+190.00E-06,+1.71979891E+00
+200.00E-06,+1.71979891E+00
+210.00E-06,+1.62633157E+00
+220.00E-06,+1.62331650E+00
+230.00E-06,+1.62633157E+00
+240.00E-06,+1.57809037E+00
+250.00E-06,+1.62331650E+00
+260.00E-06,+1.57507529E+00
+270.00E-06,+1.47859288E+00
+280.00E-06,+1.52683409E+00
+290.00E-06,+1.43336675E+00
+300.00E-06,+1.43336675E+00
+310.00E-06,+1.38512554E+00
+320.00E-06,+1.33688434E+00
+330.00E-06,+1.38211047E+00
+340.00E-06,+1.28864313E+00
+350.00E-06,+1.24040193E+00
+360.00E-06,+1.24040193E+00
+370.00E-06,+1.19216072E+00
+380.00E-06,+1.18914565E+00
+390.00E-06,+1.18914565E+00
+400.00E-06,+1.14090444E+00
+410.00E-06,+1.09266324E+00
+420.00E-06,+1.04743711E+00
+430.00E-06,+1.09266324E+00
+440.00E-06,+1.04442203E+00
+450.00E-06,+1.04442203E+00
+460.00E-06,+999.19590E-03
+470.00E-06,+1.04442203E+00
+480.00E-06,+1.04442203E+00
+490.00E-06,+999.19590E-03
+500.00E-06,+1.04442203E+00
+510.00E-06,+1.09266324E+00
+520.00E-06,+1.04442203E+00
+530.00E-06,+1.04442203E+00
+540.00E-06,+1.04442203E+00
+550.00E-06,+1.04442203E+00
+560.00E-06,+999.19590E-03
+570.00E-06,+1.09266324E+00
+580.00E-06,+999.19590E-03
+590.00E-06,+1.04442203E+00
+600.00E-06,+1.04442203E+00
+610.00E-06,+1.04442203E+00
+620.00E-06,+1.04743711E+00
+630.00E-06,+1.04442203E+00
+640.00E-06,+1.09266324E+00
+650.00E-06,+996.18082E-03
+660.00E-06,+1.04442203E+00
+670.00E-06,+996.18082E-03
+680.00E-06,+999.19590E-03
+690.00E-06,+1.04442203E+00
+700.00E-06,+1.04442203E+00
+710.00E-06,+1.04743711E+00
+720.00E-06,+1.09266324E+00
+730.00E-06,+1.04743711E+00
+740.00E-06,+1.04442203E+00
+750.00E-06,+1.04442203E+00
+760.00E-06,+1.09266324E+00
+770.00E-06,+1.04442203E+00
+780.00E-06,+1.09266324E+00
+790.00E-06,+1.04442203E+00
+800.00E-06,+1.04743711E+00
+810.00E-06,+1.04442203E+00
+820.00E-06,+1.04743711E+00
+830.00E-06,+1.04442203E+00
+840.00E-06,+1.09266324E+00
+850.00E-06,+1.04743711E+00
+860.00E-06,+1.04442203E+00
+870.00E-06,+1.04442203E+00
+880.00E-06,+1.04743711E+00
+890.00E-06,+1.04442203E+00
+900.00E-06,+1.04442203E+00
+910.00E-06,+1.04442203E+00
+920.00E-06,+999.19590E-03
+930.00E-06,+1.04442203E+00
+940.00E-06,+996.18082E-03
+950.00E-06,+996.18082E-03
+960.00E-06,+996.18082E-03
+970.00E-06,+902.71349E-03
+980.00E-06,+899.69841E-03
+990.00E-06,+754.97480E-03
+1.00000E-03,+706.73359E-03
+1.01000E-03,+562.00998E-03
+1.02000E-03,+420.30143E-03
+1.03000E-03,+465.52756E-03
+1.04000E-03,+513.76877E-03
+1.05000E-03,+661.50746E-03
+1.06000E-03,+899.69841E-03
+1.07000E-03,+1.14090444E+00
+1.08000E-03,+1.43035167E+00
+1.09000E-03,+1.76804011E+00
+1.10000E-03,+2.10572855E+00
+1.11000E-03,+2.44341699E+00
+1.12000E-03,+2.78412050E+00
+1.13000E-03,+3.21527628E+00
+1.14000E-03,+3.59819085E+00
+1.15000E-03,+3.93889436E+00
+1.16000E-03,+4.37306521E+00
+1.17000E-03,+4.71075365E+00
+1.18000E-03,+5.09668329E+00
+1.19000E-03,+5.43437173E+00
+1.20000E-03,+5.86854258E+00
+1.21000E-03,+6.10974861E+00
+1.22000E-03,+6.25447223E+00
+1.23000E-03,+6.25447223E+00
+1.24000E-03,+6.10673353E+00
+1.25000E-03,+5.91678379E+00
+1.26000E-03,+5.62733655E+00
+1.27000E-03,+5.43135666E+00
+1.28000E-03,+5.09668329E+00
+1.29000E-03,+4.71075365E+00
+1.30000E-03,+4.37306521E+00
+1.31000E-03,+3.98412049E+00
+1.32000E-03,+3.60120592E+00
+1.33000E-03,+3.21829135E+00
+1.34000E-03,+2.83236171E+00
+1.35000E-03,+2.39819086E+00
+1.36000E-03,+2.01226122E+00
+1.37000E-03,+1.62331650E+00
+1.38000E-03,+1.19216072E+00
+1.39000E-03,+757.98987E-03
+1.40000E-03,+465.52756E-03
+1.41000E-03,+227.33661E-03
+1.42000E-03,+130.85420E-03
+1.43000E-03,+82.61300E-03
+1.44000E-03,+176.08033E-03
+1.45000E-03,+224.32154E-03
+1.46000E-03,+320.80395E-03
+1.47000E-03,+372.06023E-03
+1.48000E-03,+468.54264E-03
+1.49000E-03,+562.00998E-03
+1.50000E-03,+658.49239E-03
+1.51000E-03,+754.97480E-03
+1.52000E-03,+757.98987E-03
+1.53000E-03,+899.69841E-03
+1.54000E-03,+899.69841E-03
+1.55000E-03,+996.18082E-03
+1.56000E-03,+996.18082E-03
+1.57000E-03,+1.04442203E+00
+1.58000E-03,+999.19590E-03
+1.59000E-03,+1.04442203E+00
+1.60000E-03,+999.19590E-03
+1.61000E-03,+1.04442203E+00
+1.62000E-03,+999.19590E-03
+1.63000E-03,+1.04743711E+00
+1.64000E-03,+1.04442203E+00
+1.65000E-03,+1.04442203E+00
+1.66000E-03,+1.04743711E+00
+1.67000E-03,+1.04743711E+00
+1.68000E-03,+1.04442203E+00
+1.69000E-03,+1.04442203E+00
+1.70000E-03,+1.04442203E+00
+1.71000E-03,+1.09266324E+00
+1.72000E-03,+1.04442203E+00
+1.73000E-03,+1.04442203E+00
+1.74000E-03,+1.09266324E+00
+1.75000E-03,+999.19590E-03
+1.76000E-03,+1.09266324E+00
+1.77000E-03,+1.04442203E+00
+1.78000E-03,+999.19590E-03
+1.79000E-03,+1.04442203E+00
+1.80000E-03,+1.04442203E+00
+1.81000E-03,+1.04743711E+00
+1.82000E-03,+1.04442203E+00
+1.83000E-03,+999.19590E-03
+1.84000E-03,+1.04743711E+00
+1.85000E-03,+1.04442203E+00
+1.86000E-03,+1.04442203E+00
+1.87000E-03,+1.04442203E+00
+1.88000E-03,+1.04743711E+00
+1.89000E-03,+1.04442203E+00
+1.90000E-03,+1.04743711E+00
+1.91000E-03,+999.19590E-03
+1.92000E-03,+1.04442203E+00
+1.93000E-03,+1.04442203E+00
+1.94000E-03,+1.04743711E+00
+1.95000E-03,+1.09266324E+00
+1.96000E-03,+1.04442203E+00
+1.97000E-03,+1.04743711E+00
+1.98000E-03,+1.04743711E+00
+1.99000E-03,+1.04442203E+00
+2.00000E-03,+1.04442203E+00
+2.01000E-03,+1.04743711E+00
+2.02000E-03,+1.04442203E+00
+2.03000E-03,+1.04442203E+00
+2.04000E-03,+1.09266324E+00
+2.05000E-03,+1.04743711E+00
+2.06000E-03,+1.09266324E+00
+2.07000E-03,+1.04442203E+00
+2.08000E-03,+1.04442203E+00
+2.09000E-03,+999.19590E-03
+2.10000E-03,+1.04442203E+00
+2.11000E-03,+1.04442203E+00
+2.12000E-03,+1.09266324E+00
+2.13000E-03,+1.04442203E+00
+2.14000E-03,+1.04743711E+00
+2.15000E-03,+1.04442203E+00
+2.16000E-03,+1.04442203E+00
+2.17000E-03,+1.04743711E+00
+2.18000E-03,+1.04442203E+00
+2.19000E-03,+1.04442203E+00
+2.20000E-03,+999.19590E-03
+2.21000E-03,+1.04442203E+00
+2.22000E-03,+1.09266324E+00
+2.23000E-03,+1.04442203E+00
+2.24000E-03,+1.04442203E+00
+2.25000E-03,+999.19590E-03
+2.26000E-03,+1.04442203E+00
+2.27000E-03,+1.04442203E+00
+2.28000E-03,+1.04442203E+00
+2.29000E-03,+1.04442203E+00
+2.30000E-03,+1.04442203E+00
+2.31000E-03,+1.04442203E+00
+2.32000E-03,+1.09266324E+00
+2.33000E-03,+1.04442203E+00
+2.34000E-03,+1.04442203E+00
+2.35000E-03,+1.04442203E+00
+2.36000E-03,+1.04442203E+00
+2.37000E-03,+1.04743711E+00
+2.38000E-03,+1.04442203E+00
+2.39000E-03,+1.09266324E+00
+2.40000E-03,+1.04442203E+00
+2.41000E-03,+1.04442203E+00
+2.42000E-03,+1.04442203E+00
+2.43000E-03,+1.09266324E+00
+2.44000E-03,+999.19590E-03
+2.45000E-03,+1.04442203E+00
+2.46000E-03,+1.04442203E+00
+2.47000E-03,+1.09266324E+00
+2.48000E-03,+1.04442203E+00
+2.49000E-03,+1.04442203E+00
+2.50000E-03,+999.19590E-03
+2.51000E-03,+1.04442203E+00
+2.52000E-03,+999.19590E-03
+2.53000E-03,+1.09266324E+00
+2.54000E-03,+1.09266324E+00
+2.55000E-03,+1.09266324E+00
+2.56000E-03,+1.14090444E+00
+2.57000E-03,+1.14090444E+00
+2.58000E-03,+1.14391952E+00
+2.59000E-03,+1.18914565E+00
+2.60000E-03,+1.14391952E+00
+2.61000E-03,+1.23738685E+00
+2.62000E-03,+1.18914565E+00
+2.63000E-03,+1.23738685E+00
+2.64000E-03,+1.28562806E+00
+2.65000E-03,+1.28562806E+00
+2.66000E-03,+1.28562806E+00
+2.67000E-03,+1.24040193E+00
+2.68000E-03,+1.33386926E+00
+2.69000E-03,+1.33386926E+00
+2.70000E-03,+1.33386926E+00
+2.71000E-03,+1.33386926E+00
+2.72000E-03,+1.33688434E+00
+2.73000E-03,+1.38211047E+00
+2.74000E-03,+1.38512554E+00
+2.75000E-03,+1.38211047E+00
+2.76000E-03,+1.43035167E+00
+2.77000E-03,+1.47859288E+00
+2.78000E-03,+1.43336675E+00
+2.79000E-03,+1.47859288E+00
+2.80000E-03,+1.52683409E+00
+2.81000E-03,+1.52683409E+00
+2.82000E-03,+1.52683409E+00
+2.83000E-03,+1.52683409E+00
+2.84000E-03,+1.52683409E+00
+2.85000E-03,+1.52984916E+00
+2.86000E-03,+1.62331650E+00
+2.87000E-03,+1.57809037E+00
+2.88000E-03,+1.62331650E+00
+2.89000E-03,+1.62331650E+00
+2.90000E-03,+1.62331650E+00
+2.91000E-03,+1.62331650E+00
+2.92000E-03,+1.67155770E+00
+2.93000E-03,+1.67155770E+00
+2.94000E-03,+1.67155770E+00
+2.95000E-03,+1.67155770E+00
+2.96000E-03,+1.67457278E+00
+2.97000E-03,+1.72281398E+00
+2.98000E-03,+1.72281398E+00
+2.99000E-03,+1.71979891E+00
+3.00000E-03,+1.72281398E+00
+3.01000E-03,+1.76804011E+00
+3.02000E-03,+1.76804011E+00
+3.03000E-03,+1.76804011E+00
+3.04000E-03,+1.77105519E+00
+3.05000E-03,+1.81628132E+00
+3.06000E-03,+1.81628132E+00
+3.07000E-03,+1.81628132E+00
+3.08000E-03,+1.81628132E+00
+3.09000E-03,+1.86452252E+00
+3.10000E-03,+1.86452252E+00
+3.11000E-03,+1.81929639E+00
+3.12000E-03,+1.81929639E+00
+3.13000E-03,+1.91276373E+00
+3.14000E-03,+1.91276373E+00
+3.15000E-03,+1.86753760E+00
+3.16000E-03,+1.91276373E+00
+3.17000E-03,+1.91276373E+00
+3.18000E-03,+1.96100494E+00
+3.19000E-03,+1.91577881E+00
+3.20000E-03,+1.91577881E+00
+3.21000E-03,+1.96100494E+00
+3.22000E-03,+1.91577881E+00
+3.23000E-03,+1.96100494E+00
+3.24000E-03,+2.00924614E+00
+3.25000E-03,+2.00924614E+00
+3.26000E-03,+1.96100494E+00
+3.27000E-03,+1.96402001E+00
+3.28000E-03,+2.00924614E+00
+3.29000E-03,+1.96402001E+00
+3.30000E-03,+2.05748735E+00
+3.31000E-03,+2.05748735E+00
+3.32000E-03,+2.01226122E+00
+3.33000E-03,+2.00924614E+00
+3.34000E-03,+2.05748735E+00
+3.35000E-03,+2.05748735E+00
+3.36000E-03,+2.05748735E+00
+3.37000E-03,+2.05748735E+00
+3.38000E-03,+2.01226122E+00
+3.39000E-03,+2.10572855E+00
+3.40000E-03,+2.05748735E+00
+3.41000E-03,+2.05748735E+00
+3.42000E-03,+2.06050242E+00
+3.43000E-03,+2.10572855E+00
+3.44000E-03,+2.06050242E+00
+3.45000E-03,+2.10572855E+00
+3.46000E-03,+2.06050242E+00
+3.47000E-03,+2.06050242E+00
+3.48000E-03,+2.10572855E+00
+3.49000E-03,+2.06050242E+00
+3.50000E-03,+2.10572855E+00
+3.51000E-03,+2.10572855E+00
+3.52000E-03,+2.06050242E+00
+3.53000E-03,+2.06050242E+00
+3.54000E-03,+2.06050242E+00
+3.55000E-03,+2.10572855E+00
+3.56000E-03,+2.06050242E+00
+3.57000E-03,+2.10572855E+00
+3.58000E-03,+2.06050242E+00
+3.59000E-03,+2.15396976E+00
+3.60000E-03,+2.10572855E+00
+3.61000E-03,+2.10572855E+00
+3.62000E-03,+2.10572855E+00
+3.63000E-03,+2.10572855E+00
+3.64000E-03,+2.05748735E+00
+3.65000E-03,+2.10572855E+00
+3.66000E-03,+2.05748735E+00
+3.67000E-03,+2.01226122E+00
+3.68000E-03,+2.00924614E+00
+3.69000E-03,+2.00924614E+00
+3.70000E-03,+2.00924614E+00
+3.71000E-03,+2.00924614E+00
+3.72000E-03,+1.96100494E+00
+3.73000E-03,+1.96100494E+00
+3.74000E-03,+1.96100494E+00
+3.75000E-03,+1.91577881E+00
+3.76000E-03,+1.91276373E+00
+3.77000E-03,+1.91276373E+00
+3.78000E-03,+1.86452252E+00
+3.79000E-03,+1.86452252E+00
+3.80000E-03,+1.81929639E+00
+3.81000E-03,+1.77105519E+00
+3.82000E-03,+1.77105519E+00
+3.83000E-03,+1.72281398E+00
+3.84000E-03,+1.71979891E+00
+3.85000E-03,+1.67155770E+00
+3.86000E-03,+1.67155770E+00
+3.87000E-03,+1.62331650E+00
+3.88000E-03,+1.62331650E+00
+3.89000E-03,+1.57507529E+00
+3.90000E-03,+1.52683409E+00
+3.91000E-03,+1.52683409E+00
+3.92000E-03,+1.47859288E+00
+3.93000E-03,+1.43035167E+00
+3.94000E-03,+1.38211047E+00
+3.95000E-03,+1.28864313E+00
+3.96000E-03,+1.33386926E+00
+3.97000E-03,+1.24040193E+00
+3.98000E-03,+1.23738685E+00
+3.99000E-03,+1.18914565E+00
+4.00000E-03,+1.14391952E+00
+4.01000E-03,+1.14090444E+00
+4.02000E-03,+1.09266324E+00
+4.03000E-03,+1.04442203E+00
+4.04000E-03,+1.09266324E+00
+4.05000E-03,+1.04442203E+00
+4.06000E-03,+1.04743711E+00
+4.07000E-03,+1.04442203E+00
+4.08000E-03,+1.04442203E+00
+4.09000E-03,+999.19590E-03
+4.10000E-03,+1.04442203E+00
+4.11000E-03,+1.04442203E+00
+4.12000E-03,+1.04442203E+00
+4.13000E-03,+999.19590E-03
+4.14000E-03,+1.04442203E+00
+4.15000E-03,+1.04442203E+00
+4.16000E-03,+1.04442203E+00
+4.17000E-03,+1.04442203E+00
+4.18000E-03,+1.04442203E+00
+4.19000E-03,+999.19590E-03
+4.20000E-03,+996.18082E-03
+4.21000E-03,+999.19590E-03
+4.22000E-03,+1.04442203E+00
+4.23000E-03,+1.04442203E+00
+4.24000E-03,+1.04442203E+00
+4.25000E-03,+996.18082E-03
+4.26000E-03,+999.19590E-03
+4.27000E-03,+996.18082E-03
+4.28000E-03,+999.19590E-03
+4.29000E-03,+1.04442203E+00
+4.30000E-03,+999.19590E-03
+4.31000E-03,+999.19590E-03
+4.32000E-03,+950.95469E-03
+4.33000E-03,+996.18082E-03
+4.34000E-03,+1.04442203E+00
+4.35000E-03,+1.04442203E+00
+4.36000E-03,+1.09266324E+00
+4.37000E-03,+1.09266324E+00
+4.38000E-03,+1.09266324E+00
+4.39000E-03,+1.09266324E+00
+4.40000E-03,+1.14090444E+00
+4.41000E-03,+1.14391952E+00
+4.42000E-03,+1.14391952E+00
+4.43000E-03,+1.18914565E+00
+4.44000E-03,+1.14391952E+00
+4.45000E-03,+1.18914565E+00
+4.46000E-03,+1.23738685E+00
+4.47000E-03,+1.19216072E+00
+4.48000E-03,+1.23738685E+00
+4.49000E-03,+1.23738685E+00
+4.50000E-03,+1.23738685E+00
+4.51000E-03,+1.19216072E+00
+4.52000E-03,+1.24040193E+00
+4.53000E-03,+1.23738685E+00
+4.54000E-03,+1.23738685E+00
+4.55000E-03,+1.14090444E+00
+4.56000E-03,+1.14090444E+00
+4.57000E-03,+1.18914565E+00
+4.58000E-03,+1.09266324E+00
+4.59000E-03,+1.09266324E+00
+4.60000E-03,+1.04442203E+00
+4.61000E-03,+1.09266324E+00
+4.62000E-03,+1.04442203E+00
+4.63000E-03,+1.04442203E+00
+4.64000E-03,+1.04442203E+00
+4.65000E-03,+1.04442203E+00
+4.66000E-03,+1.04442203E+00
+4.67000E-03,+996.18082E-03
+4.68000E-03,+1.04442203E+00
+4.69000E-03,+1.04442203E+00
+4.70000E-03,+1.04442203E+00
+4.71000E-03,+1.04442203E+00
+4.72000E-03,+1.04442203E+00
+4.73000E-03,+999.19590E-03
+4.74000E-03,+1.04442203E+00
+4.75000E-03,+999.19590E-03
+4.76000E-03,+999.19590E-03
+4.77000E-03,+999.19590E-03
+4.78000E-03,+996.18082E-03
+4.79000E-03,+996.18082E-03
+4.80000E-03,+999.19590E-03
+4.81000E-03,+999.19590E-03
+4.82000E-03,+1.04442203E+00
+4.83000E-03,+1.04442203E+00
+4.84000E-03,+1.04442203E+00
+4.85000E-03,+996.18082E-03
+4.86000E-03,+996.18082E-03
+4.87000E-03,+1.04442203E+00
+4.88000E-03,+996.18082E-03
+4.89000E-03,+996.18082E-03
+4.90000E-03,+996.18082E-03
+4.91000E-03,+1.04442203E+00
+4.92000E-03,+996.18082E-03
+4.93000E-03,+996.18082E-03
+4.94000E-03,+1.04442203E+00
+4.95000E-03,+1.04442203E+00
+4.96000E-03,+999.19590E-03
+4.97000E-03,+996.18082E-03
+4.98000E-03,+996.18082E-03
+4.99000E-03,+1.04442203E+00
+5.00000E-03,+996.18082E-03
+5.01000E-03,+996.18082E-03
+5.02000E-03,+1.04442203E+00
+5.03000E-03,+996.18082E-03
+5.04000E-03,+999.19590E-03
+5.05000E-03,+999.19590E-03
+5.06000E-03,+1.04442203E+00
+5.07000E-03,+996.18082E-03
+5.08000E-03,+999.19590E-03
+5.09000E-03,+1.04442203E+00
+5.10000E-03,+996.18082E-03
+5.11000E-03,+1.04442203E+00
+5.12000E-03,+996.18082E-03
+5.13000E-03,+996.18082E-03
+5.14000E-03,+996.18082E-03
+5.15000E-03,+996.18082E-03
+5.16000E-03,+996.18082E-03
+5.17000E-03,+999.19590E-03
+5.18000E-03,+996.18082E-03
+5.19000E-03,+996.18082E-03
+5.20000E-03,+1.04442203E+00
+5.21000E-03,+996.18082E-03
+5.22000E-03,+996.18082E-03
+5.23000E-03,+996.18082E-03
+5.24000E-03,+1.04442203E+00
+5.25000E-03,+996.18082E-03
+5.26000E-03,+996.18082E-03
+5.27000E-03,+996.18082E-03
+5.28000E-03,+996.18082E-03
+5.29000E-03,+1.04442203E+00
+5.30000E-03,+996.18082E-03
+5.31000E-03,+1.04442203E+00
+5.32000E-03,+996.18082E-03
+5.33000E-03,+996.18082E-03
+5.34000E-03,+999.19590E-03
+5.35000E-03,+1.04442203E+00
+5.36000E-03,+999.19590E-03
+5.37000E-03,+996.18082E-03
+5.38000E-03,+996.18082E-03
+5.39000E-03,+999.19590E-03
+5.40000E-03,+999.19590E-03
+5.41000E-03,+1.04442203E+00
+5.42000E-03,+999.19590E-03
+5.43000E-03,+996.18082E-03
+5.44000E-03,+1.04442203E+00
+5.45000E-03,+1.04442203E+00
+5.46000E-03,+999.19590E-03
+5.47000E-03,+996.18082E-03
+5.48000E-03,+1.04442203E+00
+5.49000E-03,+1.04442203E+00
+5.50000E-03,+996.18082E-03
+5.51000E-03,+999.19590E-03
+5.52000E-03,+1.04442203E+00
+5.53000E-03,+996.18082E-03
+5.54000E-03,+1.04442203E+00
+5.55000E-03,+1.04442203E+00
+5.56000E-03,+1.04442203E+00
+5.57000E-03,+999.19590E-03
+5.58000E-03,+996.18082E-03
+5.59000E-03,+1.04442203E+00
+5.60000E-03,+996.18082E-03
+5.61000E-03,+996.18082E-03
+5.62000E-03,+1.04442203E+00
+5.63000E-03,+1.04442203E+00
+5.64000E-03,+999.19590E-03
+5.65000E-03,+1.04442203E+00
+5.66000E-03,+999.19590E-03
+5.67000E-03,+999.19590E-03
+5.68000E-03,+1.04442203E+00
+5.69000E-03,+999.19590E-03
+5.70000E-03,+999.19590E-03
+5.71000E-03,+999.19590E-03
+5.72000E-03,+996.18082E-03
+5.73000E-03,+999.19590E-03
+5.74000E-03,+1.04442203E+00
+5.75000E-03,+1.04442203E+00
+5.76000E-03,+996.18082E-03
+5.77000E-03,+999.19590E-03
+5.78000E-03,+996.18082E-03
+5.79000E-03,+1.04442203E+00
+5.80000E-03,+1.04442203E+00
+5.81000E-03,+1.04442203E+00
+5.82000E-03,+996.18082E-03
+5.83000E-03,+996.18082E-03
+5.84000E-03,+1.04442203E+00
+5.85000E-03,+1.04442203E+00
+5.86000E-03,+996.18082E-03
+5.87000E-03,+996.18082E-03
+5.88000E-03,+996.18082E-03
+5.89000E-03,+1.04442203E+00
+5.90000E-03,+1.04442203E+00
+5.91000E-03,+1.04442203E+00
+5.92000E-03,+1.04442203E+00
+5.93000E-03,+1.04442203E+00
+5.94000E-03,+999.19590E-03
+5.95000E-03,+1.04442203E+00
+5.96000E-03,+996.18082E-03
+5.97000E-03,+1.04442203E+00
+5.98000E-03,+999.19590E-03
+5.99000E-03,+1.04442203E+00
+6.00000E-03,+1.04442203E+00
+6.01000E-03,+996.18082E-03
+6.02000E-03,+996.18082E-03
+6.03000E-03,+996.18082E-03
+6.04000E-03,+1.04442203E+00
+6.05000E-03,+1.04442203E+00
+6.06000E-03,+999.19590E-03
+6.07000E-03,+999.19590E-03
+6.08000E-03,+996.18082E-03
+6.09000E-03,+999.19590E-03
+6.10000E-03,+1.04442203E+00
+6.11000E-03,+999.19590E-03
+6.12000E-03,+1.04442203E+00
+6.13000E-03,+999.19590E-03
+6.14000E-03,+996.18082E-03
+6.15000E-03,+999.19590E-03
+6.16000E-03,+1.04442203E+00
+6.17000E-03,+996.18082E-03
+6.18000E-03,+1.04442203E+00
+6.19000E-03,+996.18082E-03
+6.20000E-03,+996.18082E-03
+6.21000E-03,+950.95469E-03
+6.22000E-03,+996.18082E-03
+6.23000E-03,+1.04442203E+00
+6.24000E-03,+999.19590E-03
+6.25000E-03,+999.19590E-03
+6.26000E-03,+1.04442203E+00
+6.27000E-03,+1.04442203E+00
+6.28000E-03,+950.95469E-03
+6.29000E-03,+999.19590E-03
+6.30000E-03,+996.18082E-03
+6.31000E-03,+996.18082E-03
+6.32000E-03,+996.18082E-03
+6.33000E-03,+996.18082E-03
+6.34000E-03,+996.18082E-03
+6.35000E-03,+1.04442203E+00
+6.36000E-03,+999.19590E-03
+6.37000E-03,+999.19590E-03
+6.38000E-03,+1.04442203E+00
+6.39000E-03,+999.19590E-03
+6.40000E-03,+1.04442203E+00
+6.41000E-03,+1.04743711E+00
+6.42000E-03,+1.14090444E+00
+6.43000E-03,+1.09567831E+00
+6.44000E-03,+1.18914565E+00
+6.45000E-03,+1.18914565E+00
+6.46000E-03,+1.14391952E+00
+6.47000E-03,+1.18914565E+00
+6.48000E-03,+1.23738685E+00
+6.49000E-03,+1.23738685E+00
+6.50000E-03,+1.28562806E+00
+6.51000E-03,+1.33386926E+00
+6.52000E-03,+1.33386926E+00
+6.53000E-03,+1.38211047E+00
+6.54000E-03,+1.38211047E+00
+6.55000E-03,+1.38512554E+00
+6.56000E-03,+1.43035167E+00
+6.57000E-03,+1.43035167E+00
+6.58000E-03,+1.47859288E+00
+6.59000E-03,+1.43336675E+00
+6.60000E-03,+1.48160796E+00
+6.61000E-03,+1.48160796E+00
+6.62000E-03,+1.57507529E+00
+6.63000E-03,+1.52984916E+00
+6.64000E-03,+1.57507529E+00
+6.65000E-03,+1.57809037E+00
+6.66000E-03,+1.62331650E+00
+6.67000E-03,+1.62331650E+00
+6.68000E-03,+1.62331650E+00
+6.69000E-03,+1.62633157E+00
+6.70000E-03,+1.62633157E+00
+6.71000E-03,+1.67155770E+00
+6.72000E-03,+1.67155770E+00
+6.73000E-03,+1.67155770E+00
+6.74000E-03,+1.71979891E+00
+6.75000E-03,+1.71979891E+00
+6.76000E-03,+1.71979891E+00
+6.77000E-03,+1.67155770E+00
+6.78000E-03,+1.67457278E+00
+6.79000E-03,+1.76804011E+00
+6.80000E-03,+1.71979891E+00
+6.81000E-03,+1.71979891E+00
+6.82000E-03,+1.67457278E+00
+6.83000E-03,+1.67457278E+00
+6.84000E-03,+1.67155770E+00
+6.85000E-03,+1.71979891E+00
+6.86000E-03,+1.67155770E+00
+6.87000E-03,+1.67155770E+00
+6.88000E-03,+1.67155770E+00
+6.89000E-03,+1.62331650E+00
+6.90000E-03,+1.57507529E+00
+6.91000E-03,+1.57809037E+00
+6.92000E-03,+1.57507529E+00
+6.93000E-03,+1.52984916E+00
+6.94000E-03,+1.52683409E+00
+6.95000E-03,+1.47859288E+00
+6.96000E-03,+1.47859288E+00
+6.97000E-03,+1.43035167E+00
+6.98000E-03,+1.38211047E+00
+6.99000E-03,+1.38211047E+00
+7.00000E-03,+1.33386926E+00
+7.01000E-03,+1.33386926E+00
+7.02000E-03,+1.24040193E+00
+7.03000E-03,+1.28562806E+00
+7.04000E-03,+1.18914565E+00
+7.05000E-03,+1.14090444E+00
+7.06000E-03,+1.09567831E+00
+7.07000E-03,+1.09266324E+00
+7.08000E-03,+1.04743711E+00
+7.09000E-03,+1.09266324E+00
+7.10000E-03,+1.09266324E+00
+7.11000E-03,+1.09266324E+00
+7.12000E-03,+1.04743711E+00
+7.13000E-03,+1.04442203E+00
+7.14000E-03,+1.04442203E+00
+7.15000E-03,+1.04442203E+00
+7.16000E-03,+1.09266324E+00
+7.17000E-03,+1.04442203E+00
+7.18000E-03,+999.19590E-03
+7.19000E-03,+999.19590E-03
+7.20000E-03,+1.04442203E+00
+7.21000E-03,+1.04442203E+00
+7.22000E-03,+1.04442203E+00
+7.23000E-03,+999.19590E-03
+7.24000E-03,+1.09266324E+00
+7.25000E-03,+999.19590E-03
+7.26000E-03,+1.04442203E+00
+7.27000E-03,+1.04442203E+00
+7.28000E-03,+1.04442203E+00
+7.29000E-03,+999.19590E-03
+7.30000E-03,+999.19590E-03
+7.31000E-03,+1.04442203E+00
+7.32000E-03,+996.18082E-03
+7.33000E-03,+996.18082E-03
+7.34000E-03,+1.04442203E+00
+7.35000E-03,+1.09266324E+00
+7.36000E-03,+999.19590E-03
+7.37000E-03,+996.18082E-03
+7.38000E-03,+996.18082E-03
+7.39000E-03,+999.19590E-03
+7.40000E-03,+1.04442203E+00
+7.41000E-03,+1.04442203E+00
+7.42000E-03,+950.95469E-03
+7.43000E-03,+1.04442203E+00
+7.44000E-03,+1.04442203E+00
+7.45000E-03,+1.04442203E+00
+7.46000E-03,+1.04442203E+00
+7.47000E-03,+1.04442203E+00
+7.48000E-03,+999.19590E-03
+7.49000E-03,+999.19590E-03
+7.50000E-03,+1.04442203E+00
+7.51000E-03,+1.09266324E+00
+7.52000E-03,+1.04442203E+00
+7.53000E-03,+1.04442203E+00
+7.54000E-03,+1.04442203E+00
+7.55000E-03,+1.04442203E+00
+7.56000E-03,+999.19590E-03
+7.57000E-03,+996.18082E-03
+7.58000E-03,+1.04442203E+00
+7.59000E-03,+999.19590E-03
+7.60000E-03,+996.18082E-03
+7.61000E-03,+996.18082E-03
+7.62000E-03,+996.18082E-03
+7.63000E-03,+899.69841E-03
+7.64000E-03,+899.69841E-03
+7.65000E-03,+757.98987E-03
+7.66000E-03,+754.97480E-03
+7.67000E-03,+610.25118E-03
+7.68000E-03,+513.76877E-03
+7.69000E-03,+465.52756E-03
+7.70000E-03,+465.52756E-03
+7.71000E-03,+513.76877E-03
+7.72000E-03,+754.97480E-03
+7.73000E-03,+947.93962E-03
+7.74000E-03,+1.19216072E+00
+7.75000E-03,+1.52683409E+00
+7.76000E-03,+1.81628132E+00
+7.77000E-03,+2.25045217E+00
+7.78000E-03,+2.58814061E+00
+7.79000E-03,+2.97407025E+00
+7.80000E-03,+3.31175869E+00
+7.81000E-03,+3.69467326E+00
+7.82000E-03,+4.03537677E+00
+7.83000E-03,+4.42130642E+00
+7.84000E-03,+4.85246219E+00
+7.85000E-03,+5.23839183E+00
+7.86000E-03,+5.57909535E+00
+7.87000E-03,+5.96502499E+00
+7.88000E-03,+6.10974861E+00
+7.89000E-03,+6.20623102E+00
+7.90000E-03,+6.15798981E+00
+7.91000E-03,+6.06150740E+00
+7.92000E-03,+5.82030138E+00
+7.93000E-03,+5.53085414E+00
+7.94000E-03,+5.24140691E+00
+7.95000E-03,+4.90371847E+00
+7.96000E-03,+4.56603003E+00
+7.97000E-03,+4.18010039E+00
+7.98000E-03,+3.79417074E+00
+7.99000E-03,+3.45648231E+00
+8.00000E-03,+3.07055266E+00
+8.01000E-03,+2.63939689E+00
+8.02000E-03,+2.25346724E+00
+8.03000E-03,+1.86452252E+00
+8.04000E-03,+1.47859288E+00
+8.05000E-03,+999.19590E-03
+8.06000E-03,+658.49239E-03
+8.07000E-03,+369.04515E-03
+8.08000E-03,+176.08033E-03
+8.09000E-03,+127.83913E-03
+8.10000E-03,+79.59792E-03
+8.11000E-03,+127.83913E-03
+8.12000E-03,+176.08033E-03
+8.13000E-03,+320.80395E-03
+8.14000E-03,+369.04515E-03
+8.15000E-03,+513.76877E-03
+8.16000E-03,+562.00998E-03
+8.17000E-03,+658.49239E-03
+8.18000E-03,+754.97480E-03
+8.19000E-03,+851.45721E-03
+8.20000E-03,+851.45721E-03
+8.21000E-03,+899.69841E-03
+8.22000E-03,+854.47228E-03
+8.23000E-03,+996.18082E-03
+8.24000E-03,+947.93962E-03
+8.25000E-03,+947.93962E-03
+8.26000E-03,+996.18082E-03
+8.27000E-03,+996.18082E-03
+8.28000E-03,+999.19590E-03
+8.29000E-03,+999.19590E-03
+8.30000E-03,+999.19590E-03
+8.31000E-03,+1.04442203E+00
+8.32000E-03,+1.04442203E+00
+8.33000E-03,+996.18082E-03
+8.34000E-03,+1.04442203E+00
+8.35000E-03,+1.04442203E+00
+8.36000E-03,+999.19590E-03
+8.37000E-03,+996.18082E-03
+8.38000E-03,+996.18082E-03
+8.39000E-03,+1.04442203E+00
+8.40000E-03,+996.18082E-03
+8.41000E-03,+996.18082E-03
+8.42000E-03,+1.04442203E+00
+8.43000E-03,+999.19590E-03
+8.44000E-03,+999.19590E-03
+8.45000E-03,+996.18082E-03
+8.46000E-03,+996.18082E-03
+8.47000E-03,+1.04442203E+00
+8.48000E-03,+1.04442203E+00
+8.49000E-03,+996.18082E-03
+8.50000E-03,+996.18082E-03
+8.51000E-03,+996.18082E-03
+8.52000E-03,+1.04442203E+00
+8.53000E-03,+996.18082E-03
+8.54000E-03,+996.18082E-03
+8.55000E-03,+996.18082E-03
+8.56000E-03,+1.04442203E+00
+8.57000E-03,+996.18082E-03
+8.58000E-03,+996.18082E-03
+8.59000E-03,+996.18082E-03
+8.60000E-03,+999.19590E-03
+8.61000E-03,+1.04442203E+00
+8.62000E-03,+996.18082E-03
+8.63000E-03,+1.04442203E+00
+8.64000E-03,+996.18082E-03
+8.65000E-03,+950.95469E-03
+8.66000E-03,+947.93962E-03
+8.67000E-03,+996.18082E-03
+8.68000E-03,+996.18082E-03
+8.69000E-03,+996.18082E-03
+8.70000E-03,+996.18082E-03
+8.71000E-03,+996.18082E-03
+8.72000E-03,+996.18082E-03
+8.73000E-03,+996.18082E-03
+8.74000E-03,+1.04442203E+00
+8.75000E-03,+996.18082E-03
+8.76000E-03,+950.95469E-03
+8.77000E-03,+947.93962E-03
+8.78000E-03,+950.95469E-03
+8.79000E-03,+999.19590E-03
+8.80000E-03,+950.95469E-03
+8.81000E-03,+996.18082E-03
+8.82000E-03,+996.18082E-03
+8.83000E-03,+996.18082E-03
+8.84000E-03,+996.18082E-03
+8.85000E-03,+996.18082E-03
+8.86000E-03,+950.95469E-03
+8.87000E-03,+996.18082E-03
+8.88000E-03,+996.18082E-03
+8.89000E-03,+947.93962E-03
+8.90000E-03,+996.18082E-03
+8.91000E-03,+950.95469E-03
+8.92000E-03,+1.04442203E+00
+8.93000E-03,+950.95469E-03
+8.94000E-03,+996.18082E-03
+8.95000E-03,+950.95469E-03
+8.96000E-03,+1.04442203E+00
+8.97000E-03,+996.18082E-03
+8.98000E-03,+996.18082E-03
+8.99000E-03,+999.19590E-03
+9.00000E-03,+950.95469E-03
+9.01000E-03,+996.18082E-03
+9.02000E-03,+996.18082E-03
+9.03000E-03,+996.18082E-03
+9.04000E-03,+996.18082E-03
+9.05000E-03,+1.04442203E+00
+9.06000E-03,+950.95469E-03
+9.07000E-03,+1.04442203E+00
+9.08000E-03,+996.18082E-03
+9.09000E-03,+996.18082E-03
+9.10000E-03,+996.18082E-03
+9.11000E-03,+947.93962E-03
+9.12000E-03,+996.18082E-03
+9.13000E-03,+999.19590E-03
+9.14000E-03,+996.18082E-03
+9.15000E-03,+1.04442203E+00
+9.16000E-03,+950.95469E-03
+9.17000E-03,+947.93962E-03
+9.18000E-03,+996.18082E-03
+9.19000E-03,+996.18082E-03
+9.20000E-03,+1.04442203E+00
+9.21000E-03,+1.04442203E+00
+9.22000E-03,+1.04442203E+00
+9.23000E-03,+1.09266324E+00
+9.24000E-03,+1.14090444E+00
+9.25000E-03,+1.09567831E+00
+9.26000E-03,+1.14090444E+00
+9.27000E-03,+1.14090444E+00
+9.28000E-03,+1.09567831E+00
+9.29000E-03,+1.18914565E+00
+9.30000E-03,+1.18914565E+00
+9.31000E-03,+1.18914565E+00
+9.32000E-03,+1.23738685E+00
+9.33000E-03,+1.23738685E+00
+9.34000E-03,+1.24040193E+00
+9.35000E-03,+1.28562806E+00
+9.36000E-03,+1.28562806E+00
+9.37000E-03,+1.28562806E+00
+9.38000E-03,+1.28562806E+00
+9.39000E-03,+1.28864313E+00
+9.40000E-03,+1.33386926E+00
+9.41000E-03,+1.38211047E+00
+9.42000E-03,+1.33688434E+00
+9.43000E-03,+1.38211047E+00
+9.44000E-03,+1.38211047E+00
+9.45000E-03,+1.47859288E+00
+9.46000E-03,+1.47859288E+00
+9.47000E-03,+1.43336675E+00
+9.48000E-03,+1.47859288E+00
+9.49000E-03,+1.47859288E+00
+9.50000E-03,+1.52683409E+00
+9.51000E-03,+1.52683409E+00
+9.52000E-03,+1.52984916E+00
+9.53000E-03,+1.52984916E+00
+9.54000E-03,+1.52683409E+00
+9.55000E-03,+1.52984916E+00
+9.56000E-03,+1.52984916E+00
+9.57000E-03,+1.62331650E+00
+9.58000E-03,+1.62331650E+00
+9.59000E-03,+1.62331650E+00
+9.60000E-03,+1.62331650E+00
+9.61000E-03,+1.62331650E+00
+9.62000E-03,+1.62331650E+00
+9.63000E-03,+1.67155770E+00
+9.64000E-03,+1.67155770E+00
+9.65000E-03,+1.62331650E+00
+9.66000E-03,+1.71979891E+00
+9.67000E-03,+1.71979891E+00
+9.68000E-03,+1.76804011E+00
+9.69000E-03,+1.71979891E+00
+9.70000E-03,+1.71979891E+00
+9.71000E-03,+1.71979891E+00
+9.72000E-03,+1.76804011E+00
+9.73000E-03,+1.76804011E+00
+9.74000E-03,+1.76804011E+00
+9.75000E-03,+1.76804011E+00
+9.76000E-03,+1.81628132E+00
+9.77000E-03,+1.81929639E+00
+9.78000E-03,+1.81929639E+00
+9.79000E-03,+1.81628132E+00
+9.80000E-03,+1.81628132E+00
+9.81000E-03,+1.86452252E+00
+9.82000E-03,+1.91276373E+00
+9.83000E-03,+1.86452252E+00
+9.84000E-03,+1.86753760E+00
+9.85000E-03,+1.91276373E+00
+9.86000E-03,+1.91276373E+00
+9.87000E-03,+1.86753760E+00
+9.88000E-03,+1.86753760E+00
+9.89000E-03,+1.96100494E+00
+9.90000E-03,+1.91276373E+00
+9.91000E-03,+1.96100494E+00
+9.92000E-03,+1.96100494E+00
+9.93000E-03,+1.96100494E+00
+9.94000E-03,+1.96100494E+00
+9.95000E-03,+2.00924614E+00
+9.96000E-03,+1.96402001E+00
+9.97000E-03,+2.00924614E+00
+9.98000E-03,+2.00924614E+00
+9.99000E-03,+2.00924614E+00
